0 1:44 3:169 4:80 5:109 6:128 7:382 8:195 9:60 10:-34 11:112 12:154 13:7 14:63
0 1:24 2:1 3:163 4:53 5:92 6:157 7:370 8:142 9:68 10:64 11:45 12:62 13:59 14:64
0 1:37 3:182 4:90 5:101 6:294 7:356 8:164 9:143 10:33 11:19 12:34 13:26 14:69
0 1:27 2:1 3:161 4:51 5:70 6:142 7:413 8:158 9:51 10:70 11:40 12:57 13:58 14:58
0 1:18 3:175 4:66 5:91 6:139 7:364 8:191 9:87 10:20 11:67 12:63 13:49 14:72
0 1:46 3:168 4:60 5:100 6:185 7:413 8:147 9:93 10:-12 11:14 12:57 14:53
0 1:13 2:1 3:133 4:30 5:96 6:176 7:356 8:171 9:137 10:102 11:-63 12:68 13:-10 14:96
0 1:43 3:172 4:90 5:71 6:182 7:356 8:131 9:105 10:14 11:14 12:44 13:13 14:81
0 1:35 2:1 3:160 4:67 5:84 6:155 7:324 8:178 9:100 10:-10 11:42 12:71 13:34 14:96
0 1:37 3:175 4:71 5:91 6:185 7:322 8:187 9:107 10:47 11:-4 12:68 13:28 14:103
0 1:42 3:188 4:91 5:113 6:213 7:358 8:220 9:107 10:91 11:39 12:84 13:79 14:78
0 1:54 3:170 4:70 5:96 6:154 7:328 8:170 9:114 10:85 11:77 12:102 13:82 14:81
0 1:45 3:169 4:80 5:105 6:198 7:327 8:218 9:115 10:-62 11:145 12:61 13:145 14:93
0 1:47 2:1 3:163 4:80 5:84 6:126 7:362 8:137 9:72 10:9 11:42 12:35 13:17 14:67
0 1:66 3:168 4:82 5:86 6:164 7:386 8:243 9:111 10:129 11:126 12:56 13:125 14:88
0 1:78 3:152 4:46 5:97 6:121 7:382 8:224 9:55 10:87 11:87 12:-93 13:87 14:75
0 1:66 2:1 3:160 4:70 5:76 6:160 7:368 8:153 9:75 11:-5 12:-27 13:-1 14:66
0 1:8 2:1 3:130 4:24 5:77 6:125 7:358 8:159 9:70 10:87 11:55 12:16 13:76 14:80
1 1:55 3:175 4:94 5:100 6:202 7:380 8:179 9:143 10:28 11:11 12:-5 13:20 14:71
1 1:40 2:1 3:160 4:52 5:77 6:129 7:377 8:133 9:77 10:77 11:49 12:75 13:65 14:70
1 1:49 2:1 3:162 4:54 5:78 7:376 8:157 9:70 10:67 11:7 12:8 13:51 14:67
1 1:44 3:168 4:56 5:84 6:118 7:354 8:160 9:63 10:61 11:69 12:78 13:66 14:64
1 1:45 2:1 3:165 4:86 5:77 6:143 7:373 8:150 9:65 10:12 11:37 12:49 13:26 14:72
1 1:44 2:1 3:160 4:88 5:77 6:158 7:399 8:163 9:94 10:46 11:20 12:45 13:40 14:72
1 1:47 2:1 3:150 4:48 5:75 6:132 7:350 8:169 9:65 10:36 11:45 12:68 13:40 14:76
1 1:46 2:1 3:158 4:58 5:70 6:120 7:353 8:122 9:52 10:57 11:49 12:-2 13:54 14:70
1 1:73 3:165 4:63 5:91 6:154 7:392 8:175 9:83 10:73 11:-24 12:61 13:42 14:66
1 1:57 2:1 3:166 4:72 5:82 6:181 7:399 8:158 9:79 10:-12 11:28 12:50 13:1 14:66
1 1:28 2:1 3:160 4:58 5:83 6:251 7:383 8:189 9:183 10:50 11:39 12:46 13:43 14:76
1 1:45 3:169 4:67 5:90 6:122 7:336 8:177 9:78 10:81 11:78 12:67 13:80 14:66
1 1:36 2:1 3:153 4:75 5:71 6:132 7:364 8:169 9:82 10:62 11:56 12:45 13:60 14:77
1 1:57 2:1 3:165 4:59 5:75 6:157 7:406 8:143 9:92 10:4 11:10 12:58 13:5 14:69
1 1:40 2:1 3:153 4:55 5:82 6:140 7:388 8:149 9:82 10:52 11:17 12:105 13:42 14:68
1 1:58 2:1 3:163 4:68 5:71 6:136 7:339 8:152 9:76 10:13 11:20 12:61 13:14 14:81
1 1:50 2:1 3:160 4:73 5:75 6:125 7:353 8:183 9:63 10:38 11:32 12:73 13:35 14:93
1 1:52 2:1 3:155 4:70 5:78 6:137 7:368 8:148 9:83 10:9 11:56 12:53 13:21 14:69
1 1:44 2:1 3:160 4:45 5:69 6:178 7:357 8:137 9:80 10:62 11:23 12:55 13:53 14:63
1 1:50 3:172 4:80 5:103 6:142 7:366 8:161 9:94 10:54 11:13 12:36 13:30 14:70
1 1:62 2:1 3:163 4:60 5:80 6:185 7:354 8:166 9:107 10:-2 11:3 12:40 13:-1 14:75
1 1:43 2:1 3:157 4:71 5:80 6:162 7:383 8:141 9:84 10:53 11:10 12:39 13:36 14:70
1 1:40 2:1 3:160 4:75 5:79 6:154 7:350 8:160 9:94 10:67 11:-5 12:65 13:43 14:82
1 1:30 2:1 3:160 4:62 5:92 6:154 7:346 8:158 9:96 10:54 11:48 12:64 13:52 14:91
1 1:34 2:1 3:165 4:61 5:84 6:152 7:383 8:144 9:71 10:59 11:52 12:61 13:57 14:64
1 1:40 2:1 3:160 4:51 5:86 6:177 7:367 8:147 9:113 10:-18 11:4 12:60 13:-12 14:79
1 1:30 2:1 3:158 4:57 5:73 6:137 7:369 8:143 9:77 10:30 11:-18 12:36 13:20 14:67
1 1:34 2:1 3:159 4:68 5:80 6:135 7:379 8:149 9:97 10:-14 11:46 12:60 13:-10 14:78
1 1:75 2:1 3:156 4:53 5:81 6:180 7:386 8:137 9:106 10:1 11:64 12:63 13:27 14:65
1 1:28 2:1 3:156 4:52 5:83 6:135 7:359 8:169 9:80 10:34 11:34 12:55 13:33 14:73
1 1:38 2:1 3:160 4:63 5:79 7:376 8:165 10:34 11:14 12:55 13:26 14:70
1 1:42 3:168 4:79 5:90 6:145 7:364 8:175 9:79 10:-11 11:30 12:61 13:3 14:71
1 1:36 2:1 3:158 4:58 5:76 6:136 7:373 8:152 9:80 10:74 11:64 12:70 13:68 14:65
1 1:27 2:1 3:162 4:53 5:82 6:168 7:374 8:167 9:78 10:66 11:62 12:68 13:62 14:70
1 1:48 2:1 3:155 4:55 5:81 7:382 8:209 9:63 10:75 11:46 12:-14 13:67 14:67
1 1:44 2:1 3:155 4:65 5:80 6:117 7:363 8:142 9:72 10:56 11:10 12:62 13:31 14:73
1 1:26 2:1 3:160 4:65 5:71 6:150 7:350 8:165 9:81 10:66 11:45 12:15 13:57 14:70
1 1:64 2:1 3:156 4:82 5:87 6:171 7:380 8:152 9:102 10:-36 11:52 12:60 13:3 14:65
1 1:31 2:1 3:161 4:73 5:93 6:173 7:361 8:164 9:108 10:63 11:45 12:67 13:56 14:80
1 1:46 2:1 3:163 4:100 5:90 6:155 7:418 8:162 9:118 10:-24 11:19 12:31 13:-8 14:60
1 1:35 2:1 3:158 4:60 5:87 6:138 7:383 8:178 9:68 10:61 11:50 12:51 13:56 14:66
1 1:56 2:1 3:165 4:73 5:90 6:147 7:388 8:178 9:92 10:88 11:68 12:75 13:82 14:65
1 1:71 2:1 3:156 4:56 5:78 6:195 7:331 8:148 9:102 10:62 11:15 12:74 13:54 14:98
1 1:37 2:1 3:156 4:52 5:83 6:147 7:330 8:133 9:96 10:60 11:-2 12:63 13:49 14:78
1 1:57 3:177 4:68 5:92 6:159 7:349 8:176 9:117 10:68 11:52 12:60 13:59 14:86
1 1:52 2:1 3:155 4:104 5:84 6:217 7:420 8:221 9:117 10:27 11:-13 12:41 13:4 14:68
1 1:63 2:1 3:163 4:62 5:79 6:160 7:371 8:171 9:100 10:9 11:10 12:56 13:9 14:75
1 1:55 3:185 4:105 5:87 6:292 7:406 8:192 9:175 10:19 11:58 12:18 13:51 14:64
1 1:37 2:1 3:157 4:62 5:85 6:145 7:397 8:176 9:88 10:24 11:47 12:57 13:36 14:73
1 1:52 2:1 3:155 4:104 5:84 6:188 7:450 8:193 9:89 10:22 11:-5 12:7 13:5 14:66
1 1:36 2:1 3:160 4:70 5:78 6:118 7:241 8:152 9:68 10:26 11:-165 12:43 13:30 14:72
1 1:39 2:1 3:155 4:59 5:91 6:171 7:387 8:117 9:93 10:73 11:60 12:53 13:71 14:63
1 1:19 2:1 3:157 4:40 5:98 6:176 7:343 8:132 9:144 10:169 11:73 12:58 13:124 14:101
1 1:27 3:170 4:66 5:86 6:195 7:414 8:182 9:80 10:43 11:52 12:64 13:46 14:65
1 1:57 2:1 3:153 4:61 5:78 6:132 7:368 8:192 9:85 10:37 11:21 12:50 13:28 14:72
1 1:50 3:184 4:96 5:94 6:160 7:360 8:203 9:89 10:26 11:143 12:36 13:55 14:68
1 1:71 2:1 3:162 4:72 5:82 6:294 7:366 8:148 9:178 10:-12 11:13 12:45 13:-4 14:68
1 1:43 3:176 4:90 5:78 6:203 7:369 8:167 9:102 10:41 11:42 12:47 13:40 14:85
1 1:33 2:1 3:163 4:75 5:79 6:170 7:364 8:167 9:97 10:58 11:62 12:55 13:62 14:77
1 1:9 3:132 4:33 5:87 6:159 7:335 8:167 9:65 10:78 11:48 12:-6 13:62 14:78
1 1:39 2:1 3:160 4:45 5:75 6:163 7:418 8:155 9:90 10:12 11:22 12:52 13:19 14:65
1 1:28 2:1 3:159 4:56 5:96 6:153 7:340 8:152 9:90 10:-16 11:19 12:17 13:1 14:86
1 1:24 2:1 3:162 4:75 5:88 6:150 7:353 8:156 9:96 10:-21 11:13 12:68 13:-3 14:93
1 1:58 2:1 3:170 4:75 5:90 6:157 7:382 8:168 9:114 10:52 11:72 12:62 13:57 14:70
1 1:69 2:1 3:154 4:59 5:74 6:159 7:380 8:154 9:96 10:15 11:57 12:60 13:27 14:81
1 1:50 3:164 4:75 5:85 6:142 7:339 8:157 9:89 10:18 11:41 12:66 13:27 14:80
1 1:72 3:170 4:74 5:90 6:180 7:386 8:174 9:100 10:-46 11:57 12:53 13:-10 14:71
1 1:71 3:170 4:52 5:71 6:158 7:325 8:135 9:103 10:26 11:65 12:107 13:53 14:92
1 1:37 2:1 3:159 4:56 5:75 6:162 7:339 8:141 9:96 10:60 11:58 12:73 13:56 14:81
1 1:25 2:1 3:162 4:78 5:77 6:141 7:378 8:206 9:84 10:56 11:36 12:29 13:46 14:73
1 1:58 3:186 4:18 5:87 6:166 7:372 8:150 9:96 10:-1 11:63 12:39 13:17 14:70
1 1:53 2:1 3:155 4:63 5:74 6:165 7:386 8:150 9:97 10:29 11:55 12:52 13:39 14:72
1 1:46 3:163 4:86 5:99 6:163 7:393 8:150 9:113 10:-5 11:44 12:52 13:2 14:76
1 1:56 3:165 4:54 5:89 6:130 7:347 8:175 9:70 10:84 11:77 12:60 13:80 14:63
1 1:48 2:1 3:165 4:70 5:83 6:146 7:418 8:134 9:83 10:48 11:44 12:40 13:47 14:61
1 1:39 2:1 3:157 4:56 5:78 6:155 7:350 8:147 9:104 10:66 11:24 12:73 13:54 14:81
1 1:40 3:172 4:60 5:87 6:146 7:352 8:160 9:89 10:81 11:55 12:74 13:73 14:58
1 1:47 2:1 3:168 4:64 5:79 6:152 7:398 8:172 9:91 10:58 11:53 12:22 13:56 14:62
1 1:35 2:1 3:162 4:68 5:80 6:156 7:364 8:134 9:116 10:60 11:33 12:83 13:55 14:80
1 1:51 2:1 3:160 4:80 5:85 6:167 7:355 8:151 9:127 10:36 11:36 12:63 13:36 14:85
1 1:35 3:170 4:80 5:81 6:135 7:337 8:152 9:79 10:71 11:41 12:50 13:63 14:75
1 1:49 3:166 4:73 5:95 6:157 7:383 8:163 9:92 10:-18 11:51 12:38 13:16 14:60
1 1:31 2:1 3:150 4:64 5:82 6:195 7:362 8:156 9:102 10:61 11:20 12:56 13:48 14:76
1 1:34 2:1 3:155 4:54 5:86 6:127 7:369 8:157 9:78 10:23 11:10 12:56 13:15 14:62
1 1:39 2:1 3:160 4:62 5:80 6:123 7:375 8:153 9:67 10:60 11:42 12:32 13:50 14:65
1 1:48 2:1 3:156 4:62 5:85 6:176 7:385 8:172 9:104 10:78 11:69 12:62 13:74 14:74
1 1:32 3:173 4:75 5:111 6:171 7:347 8:235 9:94 10:24 11:18 12:58 13:21 14:74
1 1:36 3:172 4:90 5:89 6:164 7:357 8:172 9:67 10:-50 11:22 12:36 13:-4 14:61
1 1:45 3:169 4:73 5:92 6:124 7:370 8:180 9:62 10:25 11:25 12:8 13:25 14:65
1 1:45 2:1 3:162 4:61 5:75 6:122 7:357 8:143 9:72 10:50 11:8 12:56 13:38 14:77
1 1:59 3:161 4:70 5:83 6:194 7:393 8:169 9:97 10:40 11:33 12:42 13:38 14:69
1 1:46 2:1 3:153 4:70 5:84 6:153 7:383 8:181 9:86 10:-14 11:54 12:43 13:16 14:73
1 1:42 2:1 3:170 4:80 5:91 6:187 7:378 8:169 9:74 10:65 11:43 12:58 13:55 14:64
1 1:42 2:1 3:160 4:68 5:81 6:147 7:337 8:131 9:96 10:-1 11:-1 12:46 13:-1 14:85
1 1:54 3:170 4:78 5:113 6:216 7:414 8:193 9:170 10:50 11:64 12:59 13:58 14:61
1 1:24 3:176 4:72 5:92 6:153 7:336 8:165 9:76 10:11 11:47 12:48 13:35 14:68
1 1:40 2:1 3:165 4:53 5:81 6:160 7:347 8:154 9:81 10:67 11:57 12:61 13:63 14:72
1 1:25 2:1 3:162 4:48 5:74 6:115 7:377 8:116 9:67 10:56 11:57 12:60 13:56 14:60
1 1:68 2:1 3:168 4:59 5:78 6:159 7:356 8:164 9:83 10:-51 11:52 12:-4 14:86
1 1:19 2:1 3:156 4:47 5:80 6:137 7:342 8:243 9:92 10:-7 11:48 12:69 13:27 14:92
1 1:44 3:178 4:89 5:106 6:183 7:380 8:147 9:94 10:-2 11:77 12:41 13:14 14:70
1 1:50 3:168 4:80 5:95 6:159 7:358 8:166 9:96 10:-50 11:50 12:79 13:-29 14:73
1 1:32 2:1 3:163 4:65 5:100 6:145 7:377 8:152 9:101 10:28 11:68 12:69 13:52 14:72
1 1:64 2:1 3:160 4:67 5:78 6:162 7:351 8:152 9:97 10:72 11:19 12:67 13:62 14:78
1 1:66 3:167 4:70 5:87 6:157 7:394 8:166 9:91 10:-11 11:25 12:44 13:-2 14:57
1 1:63 2:1 3:156 4:70 5:85 6:165 7:415 8:172 9:82 10:80 11:-15 12:60 13:60 14:64
1 1:44 3:179 4:85 5:92 6:240 7:439 8:167 9:123 10:20 11:108 12:9 13:40 14:79
1 1:49 2:1 3:166 4:62 5:73 6:132 7:349 8:154 9:64 10:-58 11:38 13:-7 14:71
1 1:60 2:1 3:160 4:61 5:81 6:191 7:354 8:127 9:99 10:76 11:23 12:79 13:67 14:84
1 1:44 2:1 3:173 4:71 5:95 6:139 7:394 8:149 9:93 10:34 11:16 12:56 13:27 14:77
1 1:27 2:1 3:155 4:45 5:73 6:156 7:332 8:190 9:97 10:73 11:49 12:61 13:59 14:94
1 1:21 2:1 3:166 4:68 5:95 6:191 7:377 8:171 9:89 10:91 11:56 12:69 13:81 14:82
1 1:58 2:1 3:155 4:60 5:97 6:128 7:390 8:169 9:67 10:33 11:35 12:-65 13:33 14:74
1 1:64 2:1 3:160 4:80 5:62 6:160 7:376 8:136 9:104 10:4 11:52 12:5 13:15 14:68
1 1:50 2:1 3:159 4:70 5:86 6:168 7:310 8:220 9:84 10:-6 11:-172 12:17 13:-21 14:81
1 1:35 2:1 3:160 4:51 5:71 6:124 7:367 8:168 9:68 10:44 11:34 12:41 13:38 14:73
1 1:46 2:1 3:162 4:65 5:68 6:175 7:391 8:147 9:114 10:81 11:57 12:65 13:74 14:60
1 1:53 3:178 4:84 5:90 6:176 7:355 8:150 9:108 10:-15 11:37 12:60 13:11 14:69
1 1:42 2:1 3:157 4:65 5:86 6:109 7:374 8:167 9:61 10:66 11:17 12:36 13:54 14:64
1 1:18 3:180 4:63 5:93 6:160 7:321 8:172 9:101 10:111 11:72 12:75 13:80 14:92
1 1:30 2:1 3:160 4:65 5:79 6:131 7:360 8:140 9:77 10:3 11:36 12:13 13:21 14:79
1 1:47 2:1 3:165 4:67 5:78 6:113 7:342 8:125 9:58 10:25 11:64 12:60 13:49 14:81
1 1:42 3:178 4:75 5:87 6:136 7:356 8:202 9:87 10:-25 11:11 12:60 13:-6 14:75
1 1:83 2:1 3:160 4:55 5:84 6:186 7:358 8:166 9:113 10:35 11:61 12:63 13:49 14:84
1 1:37 3:168 4:82 5:85 6:197 7:379 8:182 9:117 10:60 11:13 12:55 13:32 14:56
1 1:36 3:170 4:85 5:84 6:139 7:363 8:184 9:82 10:2 11:8 12:-2 13:4 14:62
1 1:49 2:1 3:170 4:79 5:85 6:128 7:377 8:151 9:76 10:65 11:60 12:60 13:65 14:72
1 1:72 3:171 4:74 5:77 6:172 7:330 8:140 9:104 10:33 11:42 12:51 13:36 14:84
1 1:22 2:1 3:163 4:50 5:74 6:133 7:370 8:163 9:71 10:66 11:60 12:61 13:61 14:60
1 1:57 3:164 4:64 5:89 6:155 7:400 8:121 9:100 10:62 11:114 12:73 13:65 14:67
1 1:46 2:1 3:165 4:83 5:89 6:180 7:412 8:198 9:108 10:78 11:63 12:57 13:73 14:74
1 1:43 3:176 4:72 5:85 6:166 7:335 8:156 9:109 10:76 11:49 12:77 13:66 14:66
1 1:38 2:1 3:165 4:98 5:84 6:136 7:356 8:159 9:85 10:40 11:5 12:58 13:26 14:88
1 1:43 3:160 4:54 5:96 6:181 7:353 8:170 9:84 10:74 11:52 12:70 13:65 14:78
1 1:46 3:177 4:85 5:98 6:177 7:407 8:181 9:120 10:20 11:7 12:51 13:12 14:63
1 1:72 2:1 3:165 4:68 5:93 6:177 7:353 8:139 9:98 10:55 11:44 12:91 13:53 14:61
1 1:48 3:157 4:95 5:85 6:177 7:368 8:250 9:100 10:59 11:47 12:50 13:55 14:72
1 1:52 2:1 3:153 4:55 5:67 6:153 7:313 8:137 9:54 10:27 11:67 12:72 13:40 14:98
1 1:46 2:1 3:165 4:60 5:69 6:157 7:326 8:161 9:90 10:-21 11:28 12:75 13:13 14:86
1 1:66 2:1 3:160 4:124 5:99 6:154 7:329 8:172 9:95 10:-48 11:75 12:66 13:8 14:94
1 1:68 3:164 4:53 5:79 6:170 7:364 8:172 9:106 10:47 11:36 12:61 13:39 14:69
1 1:33 2:1 3:165 4:85 5:80 6:149 7:348 8:136 9:99 10:-6 11:8 12:39 13:-4 14:87
1 1:39 2:1 3:160 4:74 5:90 6:156 7:389 8:166 9:105 10:34 11:17 12:47 13:26 14:72
1 1:38 2:1 3:170 4:95 5:81 6:173 7:337 8:154 9:100 10:71 11:54 12:66 13:67 14:93
1 1:34 2:1 3:150 4:45 5:90 6:135 7:354 8:153 9:70 10:55 11:33 12:2 13:46 14:73
1 1:35 2:1 3:155 4:55 5:78 6:157 7:334 8:130 9:108 10:47 11:30 12:64 13:44 14:87
1 1:50 2:1 3:174 4:90 5:81 6:105 7:362 8:197 9:70 10:-31 11:-2 12:27 13:-8 14:87
1 1:43 3:163 4:85 5:90 6:169 7:357 8:151 9:102 10:-29 11:12 12:59 13:-6 14:68
1 1:50 2:1 3:160 4:106 5:85 6:151 7:383 8:163 9:64 10:22 11:25 12:35 13:25 14:73
1 1:72 2:1 3:160 4:70 5:79 6:152 7:368 8:156 9:97 10:77 11:49 12:34 13:68 14:68
1 1:48 2:1 3:158 4:52 5:61 6:320 7:397 8:175 9:155 10:69 11:58 12:-170 13:63 14:62
1 1:63 2:1 3:160 4:63 5:79 6:141 7:423 8:138 9:79 10:57 11:53 12:75 13:55 14:63
1 1:61 2:1 3:154 4:63 5:83 6:158 7:361 8:142 9:96 10:19 11:-16 12:32 13:5 14:73
1 1:32 2:1 3:157 4:58 5:78 6:174 7:371 8:152 9:83 10:9 11:18 12:53 13:12 14:68
1 1:41 3:175 4:97 5:91 6:198 7:402 8:254 9:143 10:-4 11:86 12:26 13:14 14:82
1 1:49 3:170 4:80 5:102 6:148 7:350 8:168 9:111 10:-39 11:21 12:62 13:-19 14:74
1 1:57 3:175 4:81 5:80 6:163 7:364 8:169 9:118 10:8 11:12 12:49 13:11 14:78
1 1:33 2:1 3:160 4:69 5:83 6:174 7:381 8:125 9:83 10:69 11:24 12:47 13:59 14:73
1 1:35 2:1 3:155 4:58 5:81 6:184 7:386 8:153 9:89 10:73 11:50 12:57 13:63 14:68
1 1:57 3:175 4:70 5:94 6:148 7:382 8:147 9:100 10:46 11:-8 12:76 13:24 14:72
1 1:50 2:1 3:163 4:58 5:84 6:145 7:370 8:143 9:73 12:41 14:76
1 1:60 2:1 3:158 4:75 5:91 6:137 7:387 8:188 9:97 10:-16 11:75 12:49 13:5 14:76
1 1:40 3:178 4:76 5:101 6:165 7:355 8:203 9:115 10:44 11:48 12:58 13:45 14:84
1 1:51 3:170 4:82 5:90 6:155 7:382 8:216 9:88 10:9 11:40 12:35 13:20 14:73
1 1:63 2:1 3:164 4:54 5:78 6:140 7:393 8:143 9:78 10:-1 11:9 12:45 13:4 14:65
1 1:14 3:175 4:59 5:96 6:141 7:340 8:225 9:87 10:80 11:36 12:56 13:62 14:83
1 1:80 3:160 4:70 5:90 6:201 7:404 8:157 9:111 10:21 11:-13 12:39 13:12 14:67
1 1:64 3:167 4:72 5:85 6:154 7:352 8:152 9:69 10:13 11:25 12:56 13:19 14:70
1 1:57 3:170 4:65 5:77 6:160 7:359 8:141 9:100 10:68 11:63 12:65 13:67 14:81
1 1:52 3:174 4:82 5:92 6:152 7:355 8:164 9:81 10:42 11:45 12:56 13:42 14:74
1 1:55 3:170 4:72 5:85 6:198 7:346 8:138 9:93 10:72 11:91 12:58 13:79 14:79
1 1:26 3:180 4:97 5:88 6:197 7:404 8:188 9:99 10:119 11:16 12:49 13:88 14:59
1 1:48 2:1 3:170 4:74 5:74 6:160 7:381 8:142 9:87 10:40 11:19 12:74 13:33 14:67
1 1:64 2:1 3:156 4:76 5:80 6:157 7:375 8:180 9:106 10:24 11:-49 12:52 13:-14 14:62
1 1:59 3:165 4:74 5:92 6:158 7:388 8:163 9:104 10:-1 11:3 12:46 14:65
1 1:65 3:171 4:85 5:100 6:139 7:388 8:182 9:91 10:61 11:42 12:-14 13:57 14:63
1 1:37 3:175 4:88 5:105 6:152 7:354 8:177 9:118 10:52 11:4 12:74 13:33 14:84
1 1:47 2:1 3:160 4:65 5:84 6:150 7:379 8:292 9:85 10:20 11:34 12:70 13:33 14:76
1 1:33 2:1 3:165 4:58 5:76 6:130 7:333 8:160 9:71 10:64 11:56 12:67 13:60 14:92
1 1:39 2:1 3:160 4:70 5:87 6:160 7:357 8:178 9:89 10:66 11:56 12:63 13:59 14:80
1 1:42 3:172 4:83 5:87 6:131 7:349 8:150 9:77 10:28 11:66 12:54 13:31 14:81
1 1:48 3:162 4:84 5:80 6:154 7:354 8:171 9:85 10:39 11:38 12:33 13:38 14:78
1 1:32 2:1 3:158 4:63 5:74 6:184 7:387 8:173 9:105 10:74 11:36 12:72 13:57 14:72
1 1:81 2:1 3:165 4:60 5:86 6:191 7:359 8:146 9:105 10:-11 11:52 12:51 13:7 14:76
1 1:62 3:178 4:89 5:95 6:181 7:368 8:156 9:104 10:2 11:62 12:7 13:20 14:70
1 1:48 2:1 3:160 4:48 5:104 6:103 7:359 8:153 9:65 10:48 11:113 12:74 13:65 14:58
1 1:47 3:175 4:82 5:97 6:196 7:333 8:171 9:139 10:87 11:87 12:66 13:88 14:92
1 1:46 3:178 4:86 5:91 6:156 7:371 8:162 9:68 10:13 11:11 12:30 13:12 14:72
1 1:30 3:181 4:78 5:98 6:114 7:373 8:156 9:65 10:55 11:-17 12:28 13:26 14:66
1 1:46 2:1 3:165 4:77 5:84 6:173 7:369 8:146 9:78 10:39 11:39 12:-8 13:39 14:69
1 1:72 2:1 3:154 4:55 5:82 6:140 7:381 8:171 9:72 10:1 11:77 12:55 13:42 14:63
1 1:54 2:1 3:160 4:67 5:70 6:182 7:339 8:143 9:110 10:11 11:41 12:59 13:23 14:78
1 1:67 2:1 3:160 4:68 5:87 6:158 7:386 8:152 9:115 10:58 11:51 12:61 13:55 14:61
1 1:36 3:185 4:95 5:96 6:159 7:330 8:159 9:102 10:52 11:-23 12:58 13:40 14:85
1 1:47 3:169 4:80 5:89 6:142 7:369 8:155 9:91 10:5 11:-15 12:44 13:-4 14:65
1 1:75 2:1 3:162 4:74 5:82 6:176 7:357 8:142 9:111 10:44 11:-5 12:44 13:32 14:77
1 1:70 3:178 4:80 5:93 6:118 7:258 8:155 9:82 10:-31 11:150 12:-2 13:-32 14:92
1 1:66 2:1 3:160 4:53 5:72 6:164 7:379 8:160 9:87 10:44 11:72 12:64 13:62 14:71
1 1:36 3:176 4:65 5:107 6:148 7:407 8:182 9:86 10:79 11:58 12:48 13:68 14:85
1 1:51 2:1 3:165 4:85 5:81 6:158 7:357 8:148 9:109 10:64 11:10 12:65 13:51 14:75
1 1:16 2:1 3:160 4:60 5:76 6:524 7:329 8:141 9:205 10:81 11:41 13:73 14:69
1 1:59 3:174 4:74 5:83 6:164 7:377 8:111 9:85 10:87 11:103 12:73 13:91 14:63
1 1:45 2:1 3:158 4:65 5:82 6:122 7:336 8:174 9:63 10:38 11:47 12:-7 13:43 14:87
1 1:71 2:1 3:165 4:82 5:82 6:182 7:369 8:152 9:107 10:33 11:15 12:52 13:23 14:83
1 1:66 2:1 3:155 4:62 5:80 6:188 7:418 8:178 9:104 10:19 11:114 12:29 13:31 14:59
1 1:62 2:1 3:165 4:70 5:73 6:177 7:381 8:170 9:93 10:35 11:41 12:45 13:38 14:77
1 1:21 2:1 3:156 4:44 5:78 6:151 7:363 8:154 9:87 10:84 11:71 12:46 13:78 14:69
1 1:76 2:1 3:150 4:54 5:71 6:186 7:388 8:170 9:104 10:53 11:83 12:79 13:62 14:63
1 1:25 2:1 3:160 4:56 5:86 6:162 7:376 8:184 9:106 10:25 11:22 12:38 13:24 14:78
1 1:58 2:1 3:148 4:65 5:85 6:140 7:431 8:179 9:94 10:71 11:133 12:61 13:92 14:71
1 1:53 2:1 3:160 4:60 5:86 6:133 7:338 8:159 9:82 10:74 11:36 12:53 13:60 14:80
1 1:67 2:1 3:165 4:53 5:78 6:180 7:348 8:126 9:112 10:74 11:67 12:74 13:73 14:81
1 1:30 3:167 4:77 5:87 6:164 7:362 8:168 9:89 10:71 11:-26 12:46 13:55 14:68
1 1:27 2:1 3:167 4:48 5:80 6:152 7:343 8:164 9:96 10:77 11:-68 12:74 13:47 14:89
1 1:50 2:1 3:163 4:65 5:75 6:151 7:362 8:137 9:93 10:43 11:33 12:49 13:38 14:68
1 1:27 2:1 3:160 4:42 5:78 6:153 7:374 8:165 9:85 10:23 11:61 12:59 13:48 14:78
1 1:63 2:1 3:167 4:68 5:94 6:175 7:439 8:139 9:100 10:25 12:63 13:20 14:59
1 1:29 2:1 3:162 4:57 5:83 6:164 7:359 8:154 9:69 10:64 11:54 12:74 13:58 14:71
1 1:51 3:186 4:95 5:94 6:203 7:367 8:171 9:106 10:-7 11:57 12:61 13:32 14:71
1 1:36 3:171 4:93 5:87 6:150 7:362 8:177 9:96 10:44 11:24 12:48 13:36 14:80
1 1:35 2:1 3:160 4:53 5:55 6:163 7:340 8:162 9:102 10:40 11:35 12:69 13:37 14:81
1 1:64 3:160 4:63 5:83 7:364 8:120 9:90 10:29 11:100 12:60 13:40 14:65
1 1:20 3:178 4:65 5:88 6:155 7:360 8:163 9:71 10:-22 11:18 12:86 13:-6 14:71
1 1:39 2:1 3:164 4:62 5:79 6:155 7:367 8:153 9:95 10:50 11:36 12:72 13:46 14:81
1 1:32 2:1 3:164 4:57 5:77 6:144 7:340 8:148 9:82 10:27 11:55 12:76 13:41 14:81
1 1:35 2:1 3:155 4:63 5:87 6:142 7:391 8:137 9:88 10:66 11:48 12:57 13:59 14:62
1 1:37 3:175 4:82 5:88 6:146 7:357 8:179 9:72 10:1 11:149 12:51 13:4 14:62
1 1:49 2:1 3:168 4:66 5:94 6:170 7:383 8:152 9:115 10:92 11:-5 12:65 13:77 14:72
1 1:37 3:176 4:72 5:88 6:153 7:389 8:172 9:89 10:67 11:48 12:58 13:58 14:55
1 1:37 2:1 3:160 4:50 5:74 6:143 7:374 8:146 9:75 10:68 11:14 12:49 13:55 14:65
1 1:65 2:1 3:160 4:50 5:85 6:143 7:363 8:146 9:84 10:-40 11:-10 12:54 13:-28 14:68
1 1:29 3:166 4:63 5:81 6:143 7:325 8:218 9:74 10:24 11:27 12:32 13:25 14:78
1 1:45 3:175 4:75 5:91 6:134 7:376 8:160 9:83 10:91 11:68 12:31 13:80 14:70
1 1:20 2:1 3:157 4:57 5:81 6:151 7:363 8:166 9:80 10:43 11:42 12:72 13:42 14:75
1 1:53 2:1 3:160 4:70 5:80 6:199 7:382 8:154 9:117 10:-37 11:4 12:40 13:-27 14:63
1 1:32 2:1 3:155 4:55 5:93 6:106 7:386 8:218 9:63 10:54 11:29 12:-22 13:43 14:80
1 1:78 2:1 3:160 4:70 5:79 6:127 7:364 8:138 9:78 10:28 11:79 12:52 13:47 14:75
2 1:56 2:1 3:164 4:65 5:90 6:164 7:420 8:381 9:99 10:-8 11:153 12:41 14:79
2 1:51 2:1 3:160 4:83 5:96 6:147 7:400 8:301 9:82 10:-37 11:172 12:-5 13:-67 14:71
2 1:37 2:1 3:171 4:85 5:94 6:148 7:377 8:142 9:81 10:30 11:-56 12:48 13:12 14:70
2 1:79 2:1 3:150 4:60 5:93 6:178 7:361 8:132 9:80 10:44 11:46 12:66 13:44 14:74
2 1:19 3:165 4:50 5:96 6:151 7:373 8:147 9:102 10:68 11:175 12:72 13:82 14:67
2 1:60 2:1 3:160 4:83 5:93 6:121 7:383 8:140 9:86 10:94 11:10 12:63 13:82 14:80
2 1:56 2:1 3:162 4:64 5:79 6:172 7:266 8:198 9:93 10:-2 11:-167 12:50 13:-6 14:75
2 1:65 2:1 3:155 4:68 5:68 6:200 7:347 8:164 9:111 10:-32 11:160 12:43 13:-42 14:82
2 1:47 2:1 3:163 4:55 5:92 6:187 7:367 8:122 9:102 10:76 11:-22 12:73 13:59 14:77
2 1:62 3:170 4:85 5:110 6:157 7:426 8:198 9:94 10:62 11:120 12:42 13:75 14:66
2 1:65 3:180 4:79 5:87 6:137 7:392 8:137 9:91 10:-22 11:56 12:42 13:-10 14:63
2 1:53 3:169 4:176 5:111 6:166 7:339 8:200 9:100 10:86 11:-52 12:77 13:69 14:74
2 1:17 2:1 3:156 4:40 5:77 6:106 7:465 8:147 9:57 10:53 11:174 12:67 13:84 14:89
2 1:45 3:173 4:70 5:103 6:155 7:350 8:249 9:75 10:1 11:164 12:47 13:49 14:86
2 1:36 2:1 3:149 4:48 5:88 6:170 7:389 8:144 9:106 10:70 11:142 12:71 13:101 14:77
2 1:60 2:1 3:155 4:65 5:80 6:144 7:369 8:224 9:80 10:-10 11:-106 12:74 13:-43 14:98
2 1:53 3:165 4:64 5:86 6:153 7:308 8:214 9:87 10:8 11:-160 12:58 13:-38 14:94
2 1:44 3:170 4:75 5:93 6:163 7:348 8:229 9:104 10:36 11:78 12:62 13:49 14:86
2 1:64 2:1 3:156 4:73 5:84 6:163 7:375 8:146 9:104 10:11 11:14 12:51 13:12 14:78
2 1:58 2:1 3:150 4:78 5:86 6:147 7:362 8:117 9:79 10:65 11:33 12:-10 13:60 14:71
2 1:44 2:1 3:160 4:65 5:79 6:170 7:350 8:258 9:91 10:58 11:-121 12:61 13:67 14:78
2 1:33 2:1 3:160 4:64 5:103 6:145 7:371 8:132 9:102 10:67 11:12 12:58 13:59 14:73
2 1:59 2:1 3:160 4:72 5:97 6:149 7:363 8:251 9:82 10:-1 11:-174 12:21 13:-18 14:72
2 1:31 2:1 3:160 4:55 5:94 6:124 7:434 8:127 9:66 10:61 11:-116 12:60 13:54 14:66
2 1:59 2:1 3:161 4:94 5:84 6:152 7:396 8:136 9:100 11:133 12:56 13:18 14:66
2 1:54 3:164 4:83 5:107 6:182 7:359 8:241 9:127 10:4 11:-163 12:44 13:-16 14:76
2 1:59 2:1 3:155 4:72 5:83 6:209 7:344 8:297 9:105 10:69 11:153 12:66 13:117 14:75
2 1:53 2:1 3:156 4:65 5:73 6:160 7:359 8:248 9:37 10:33 11:-132 12:-60 13:24 14:65
2 1:56 3:170 4:82 5:83 6:183 7:333 8:225 9:84 10:53 11:125 12:69 13:65 14:72
2 1:54 3:160 4:70 5:98 6:169 7:290 8:163 9:86 10:49 11:-144 12:28 13:61 14:101
2 1:43 3:165 4:80 5:100 6:188 7:336 8:152 9:98 10:-34 11:162 12:11 13:-66 14:80
2 1:59 3:160 4:52 5:92 6:128 7:359 8:245 9:69 10:74 11:53 12:78 13:69 14:75
2 1:64 3:170 4:70 5:94 6:162 7:405 8:237 9:95 10:76 11:81 12:77 13:78 14:81
2 1:70 2:1 3:160 4:84 5:76 6:165 7:397 8:163 9:108 10:-10 11:88 12:43 13:-4 14:88
2 1:64 3:160 4:60 5:87 6:131 7:396 8:169 9:76 10:-4 11:-4 12:18 13:-4 14:61
2 1:36 3:166 4:68 5:108 6:176 7:365 8:194 9:116 10:-85 11:-19 12:-61 13:-70 14:84
3 1:62 3:170 4:72 5:102 6:135 7:401 8:156 9:83 10:72 11:71 12:68 13:72 14:70
3 1:45 3:177 4:72 5:94 6:164 7:431 8:158 9:81 10:116 11:-164 12:37 13:139 14:63
3 1:50 3:170 4:80 5:92 6:178 7:321 8:196 9:99 10:54 11:95 12:43 13:83 14:70
3 1:67 3:171 4:67 5:90 6:184 7:351 8:262 9:96 10:62 11:48 12:71 13:57 14:81
3 1:46 3:170 4:80 5:87 6:150 7:346 8:251 9:96 10:-63 11:117 12:68 13:-64 14:97
3 1:45 3:170 4:74 5:82 6:163 7:373 8:266 9:87 10:87 11:122 12:36 13:102 14:64
3 1:65 3:175 4:65 5:85 6:161 7:373 8:147 9:143 10:-49 11:100 12:50 13:-11 14:78
3 1:67 3:176 4:80 5:97 6:144 7:357 8:170 9:100 10:-48 11:105 12:59 13:-11 14:93
3 1:47 3:175 4:94 5:101 6:175 7:336 8:229 9:118 10:-52 11:99 12:39 13:-29 14:93
3 1:40 3:170 4:68 5:93 6:151 7:382 8:266 9:100 10:48 11:96 12:14 13:70 14:68
3 1:57 3:165 4:74 5:82 6:205 7:293 8:187 9:115 10:92 11:-76 12:72 13:82 14:107
3 1:47 3:175 4:94 5:108 6:173 7:341 8:168 9:99 10:-49 11:87 12:30 13:-19 14:86
3 1:70 3:167 4:60 5:80 6:149 7:290 8:128 9:93 10:-67 11:111 12:26 13:-65 14:120
4 1:69 3:176 4:75 5:82 6:145 7:357 8:129 9:101 10:49 11:46 12:71 13:47 14:80
4 1:75 2:1 3:156 4:55 5:73 6:159 7:350 8:138 9:99 10:-18 11:60 12:57 13:-1 14:89
4 1:51 3:165 4:76 5:100 6:145 7:359 8:149 9:95 10:-55 11:87 12:56 13:26 14:81
4 1:40 3:162 4:65 5:114 6:191 7:383 8:222 9:98 10:64 11:15 12:60 13:50 14:76
4 1:51 3:156 4:60 5:79 6:145 7:377 8:172 9:83 10:-10 11:-8 12:69 13:-7 14:73
4 1:63 3:175 4:80 5:97 6:147 7:370 8:170 9:93 10:-2 11:38 12:32 13:2 14:89
4 1:40 3:160 4:70 5:95 6:163 7:331 8:141 9:93 10:11 11:104 12:50 13:37 14:89
4 1:57 3:175 4:80 5:98 6:157 7:304 8:130 9:78 10:43 11:-75 12:55 13:17 14:92
4 1:61 3:170 4:78 5:84 6:178 7:340 8:231 9:98 10:-40 11:114 12:50 13:74 14:84
4 1:49 2:1 3:160 4:80 5:89 6:168 7:329 8:163 9:101 10:35 11:-49 12:62 13:-8 14:98
4 1:80 3:173 4:85 5:93 6:183 7:358 8:149 9:74 10:17 11:137 12:59 13:38 14:80
4 1:44 2:1 3:160 4:64 5:74 6:129 7:330 8:161 9:79 10:-19 11:66 12:48 13:1 14:78
4 1:58 3:175 4:78 5:95 6:145 7:376 8:202 9:92 10:-5 11:-42 12:75 13:-28 14:76
4 1:57 3:172 4:74 5:93 6:157 7:376 8:255 9:100 10:33 11:51 12:67 13:34 14:77
5 1:69 2:1 3:160 4:71 5:75 6:156 7:322 8:172 9:105 10:18 11:8 12:70 13:14 14:98
5 1:1 3:110 4:10 5:80 6:121 7:287 8:156 9:67 10:126 11:25 12:60 13:104 14:104
5 1:35 2:1 3:160 4:51 5:78 6:147 7:324 8:155 9:75 10:40 11:23 12:65 13:30 14:92
5 1:62 2:1 3:165 4:70 5:72 6:169 7:328 8:135 9:85 10:-13 11:-9 12:30 13:-13 14:103
5 1:1 2:1 3:780 4:6 5:85 6:165 7:237 8:150 9:106 10:88 11:30 12:30 13:52 14:138
5 1:73 2:1 3:160 4:80 5:82 6:136 7:347 8:164 9:82 10:51 11:40 12:47 13:44 14:103
5 1:48 3:178 4:80 5:91 6:224 7:331 8:159 9:122 10:60 11:59 12:54 13:63 14:102
5 3:608 4:10 5:83 6:126 7:232 8:128 9:60 10:125 11:21 12:-50 13:102 14:163
5 1:3 3:105 4:12 5:69 6:155 7:240 8:133 9:64 10:93 11:95 12:54 13:92 14:124
5 1:34 2:1 3:165 4:60 5:74 6:178 7:302 8:127 9:117 10:112 11:15 12:50 13:104 14:112
5 1:15 2:1 3:163 4:38 5:84 6:135 7:340 8:247 9:81 10:32 11:54 12:52 13:46 14:96
5 1:53 2:1 3:156 4:70 5:86 6:141 7:301 8:153 9:79 10:52 11:9 12:31 13:41 14:117
5 1:7 2:1 3:127 4:22 5:185 6:204 7:284 8:123 9:72 10:-172 11:24 12:176 13:166 14:122
6 1:56 2:1 3:165 4:64 5:81 6:174 7:401 8:149 9:39 10:25 11:37 12:-17 13:31 14:53
6 1:30 3:170 4:73 5:91 6:180 7:355 8:157 9:104 10:68 11:51 12:60 13:63 14:56
6 1:53 3:175 4:85 5:85 6:157 7:408 8:172 9:91 10:-52 11:16 12:54 13:-32 14:51
6 1:45 3:175 4:80 5:94 6:163 7:401 8:159 9:106 10:-57 11:-8 12:70 13:-48 14:53
6 1:41 2:1 3:159 4:55 5:78 6:228 7:429 8:130 9:94 10:63 11:76 12:77 13:68 14:53
6 1:72 2:1 3:160 4:70 5:77 6:142 7:392 8:160 9:88 10:30 11:33 12:36 13:31 14:57
6 1:46 3:165 4:66 5:91 6:176 7:372 8:161 9:79 10:42 11:-24 12:66 13:33 14:56
6 1:45 2:1 3:150 4:71 5:73 6:154 7:408 8:151 9:81 10:64 11:43 12:41 13:58 14:56
6 1:37 2:1 3:155 4:60 5:76 6:166 7:384 8:172 9:100 10:34 11:31 12:46 13:32 14:53
6 1:63 3:160 4:80 5:83 6:180 7:381 8:145 9:68 10:82 11:79 12:57 13:82 14:50
6 1:36 2:1 3:160 4:65 5:72 6:142 7:371 8:137 9:91 10:56 11:21 12:65 13:47 14:57
6 1:29 3:172 4:69 5:93 6:129 7:390 8:137 9:60 10:62 11:17 12:16 13:47 14:57
6 1:34 2:1 3:167 4:60 5:63 6:164 7:396 8:139 9:84 10:49 11:10 12:64 13:31 14:54
6 1:54 2:1 3:160 4:64 5:71 6:148 7:409 8:139 9:93 10:-5 11:14 12:-11 13:2 14:56
6 1:56 3:173 4:84 5:98 6:173 7:372 8:161 9:86 10:72 11:38 12:50 13:59 14:51
6 1:61 3:171 4:70 5:90 6:174 7:380 8:158 9:72 10:56 11:71 12:45 13:66 14:53
6 1:35 2:1 3:165 4:95 5:82 6:133 7:399 8:162 9:101 10:-19 11:26 12:34 13:-5 14:55
6 1:74 3:170 4:67 5:84 6:175 7:444 8:182 9:42 10:-27 11:20 12:60 13:-7 14:44
6 1:53 3:171 4:79 5:80 6:169 7:363 8:135 9:83 10:1 11:11 12:41 13:3 14:50
6 1:72 3:165 4:64 5:85 6:168 7:386 8:148 9:86 10:31 11:45 12:71 13:34 14:58
6 1:40 2:1 3:150 4:48 5:84 6:160 7:426 8:165 9:64 10:8 11:65 13:38 14:53
6 1:38 2:1 3:172 4:61 5:94 6:165 7:401 8:149 9:97 10:-10 11:31 12:48 13:8 14:56
6 1:35 3:165 4:59 5:93 6:184 7:367 8:173 9:90 10:82 11:52 12:53 13:69 14:54
6 1:47 3:166 4:56 5:79 6:145 7:381 8:173 9:101 10:52 11:47 12:60 13:49 14:49
7 1:40 3:176 4:74 5:92 6:216 7:362 8:161 9:86 10:83 11:63 12:77 13:72 14:86
7 1:67 3:168 4:65 5:109 6:175 7:374 8:218 9:105 10:-56 11:107 12:68 13:-42 14:63
8 1:75 3:190 4:80 5:91 6:193 7:371 8:174 9:121 10:-16 11:13 12:64 13:-2 14:63
8 1:67 3:163 4:78 5:106 6:173 7:365 8:196 9:82 10:-73 11:108 12:31 13:-80 14:69
9 1:75 2:1 3:159 4:59 5:163 6:147 7:431 8:242 9:97 10:56 11:-136 12:75 13:63 14:72
9 1:68 3:161 4:70 5:170 6:192 7:419 8:264 9:116 10:62 11:-124 12:120 13:-135 14:63
9 1:73 2:1 3:158 4:72 5:137 6:164 7:393 8:244 9:105 10:14 11:142 12:18 13:49 14:80
9 1:66 2:1 3:156 4:80 5:153 6:156 7:421 8:253 9:68 10:-20 11:147 12:16 13:3 14:64
9 1:62 3:176 4:73 5:146 6:138 7:438 8:283 9:87 10:16 11:179 12:-55 13:29 14:64
9 1:68 2:1 3:146 4:62 5:146 6:200 7:448 8:273 9:116 10:8 11:179 12:68 13:23 14:61
9 1:44 3:170 4:84 5:188 6:125 7:458 8:261 9:75 10:-12 11:177 12:-25 13:-39 14:77
9 1:61 2:1 3:156 4:77 5:147 6:147 7:509 8:327 9:68 10:31 11:-115 12:63 13:-17 14:56
9 1:7 3:119 4:21 5:140 6:157 7:438 8:226 9:81 10:-40 11:86 12:29 13:69 14:70
10 1:54 3:172 4:95 5:138 6:163 7:386 8:185 9:102 10:96 11:34 12:70 13:66 14:75
10 1:50 2:1 3:167 4:67 5:89 6:130 7:383 8:156 9:73 10:85 11:34 12:70 13:71 14:63
10 1:54 2:1 3:172 4:58 5:78 6:155 7:382 8:163 9:81 10:-24 11:42 12:41 13:-13 14:73
10 1:47 3:171 4:59 5:82 6:145 7:347 8:169 9:61 10:77 11:75 12:77 13:75 14:67
10 1:31 2:1 3:160 4:54 5:95 6:161 7:407 8:168 9:83 10:10 11:48 12:39 13:30 14:67
10 1:35 2:1 3:164 4:94 5:85 6:200 7:385 8:174 9:74 10:48 11:35 12:15 13:39 14:62
10 1:39 3:172 4:76 5:103 6:147 7:356 8:162 9:80 10:11 11:9 12:55 13:9 14:73
10 1:34 3:165 4:65 5:88 6:159 7:371 8:167 9:92 10:88 11:68 12:60 13:74 14:60
10 1:25 2:1 3:168 4:55 5:97 6:133 7:338 8:235 9:96 10:-137 11:52 12:78 13:50 14:93
10 1:33 2:1 3:150 4:55 5:102 6:143 7:364 8:168 9:82 10:33 11:17 12:46 13:25 14:79
10 1:61 3:185 4:95 5:95 6:197 7:340 8:139 9:132 10:39 11:60 12:64 13:48 14:80
10 1:41 2:1 3:155 4:56 5:80 6:134 7:362 8:156 9:58 10:59 11:46 12:71 13:50 14:70
10 1:47 3:162 4:74 5:102 6:126 7:357 8:135 9:83 10:55 11:81 12:47 13:76 14:68
10 1:34 3:175 4:60 5:97 6:167 7:339 8:163 9:78 10:7 11:52 12:60 13:44 14:69
10 1:36 3:168 4:75 5:92 6:194 7:387 8:175 9:83 10:-2 11:12 12:-9 13:8 14:60
10 1:18 3:175 4:60 5:102 6:135 7:379 8:167 9:73 10:91 11:38 12:61 13:69 14:62
10 1:17 2:1 3:160 4:54 5:85 6:137 7:323 8:143 9:87 10:72 11:29 12:78 13:50 14:93
10 1:56 3:168 4:76 5:90 6:157 7:378 8:144 9:88 10:29 11:66 12:27 13:39 14:75
10 1:47 3:176 4:95 5:80 6:168 7:368 8:184 9:93 10:73 11:86 12:61 13:81 14:58
10 1:11 2:1 3:124 4:25 5:90 6:161 7:349 8:209 9:98 10:80 11:87 12:56 13:87 14:91
10 1:42 2:1 3:165 4:54 5:82 6:157 7:376 8:150 9:82 10:76 11:65 12:58 13:70 14:66
10 1:15 2:1 3:170 4:53 5:105 6:149 7:362 8:143 9:82 10:-38 11:49 12:70 14:80
10 1:58 2:1 3:160 4:62 5:98 6:158 7:358 8:154 9:114 10:85 11:33 12:68 13:66 14:72
10 1:48 2:1 3:160 4:61 5:72 6:204 7:360 8:155 9:80 10:40 11:42 12:65 13:41 14:71
10 1:45 3:170 4:74 5:99 6:164 7:381 8:190 9:92 10:50 11:71 12:68 13:64 14:61
10 1:55 3:173 4:75 5:132 6:184 7:390 8:159 9:103 10:-44 11:-21 12:43 13:-29 14:53
10 1:7 2:1 3:130 4:30 5:131 6:161 7:377 8:216 9:100 10:155 11:36 12:55 13:60 14:87
10 1:69 3:160 4:60 5:123 6:193 7:440 8:183 9:111 10:28 11:77 12:-8 13:68 14:50
10 1:70 3:165 4:70 5:105 6:178 7:329 8:145 9:72 10:-166 11:7 12:58 13:-13 14:93
10 1:37 3:170 4:90 5:96 6:178 7:350 8:169 9:114 10:15 11:84 12:39 13:70 14:89
10 1:38 3:170 4:69 5:91 6:164 7:357 8:172 9:78 10:-60 11:66 12:74 13:9 14:76
10 1:58 2:1 3:166 4:70 5:89 6:158 7:355 8:144 9:106 10:5 11:73 12:52 13:33 14:73
10 1:19 2:1 3:165 4:65 5:99 6:132 7:383 8:184 9:80 10:14 11:79 12:68 13:65 14:72
10 1:31 2:1 3:165 4:56 5:74 6:199 7:384 8:142 9:100 10:110 11:11 12:54 13:92 14:75
10 1:44 2:1 3:157 4:60 5:88 6:146 7:380 8:158 9:78 10:50 11:-2 12:47 13:21 14:71
10 1:36 3:171 4:76 5:90 6:156 7:364 8:170 9:86 10:69 11:41 12:64 13:53 14:72
10 1:20 3:186 4:66 5:95 6:123 7:378 8:161 9:81 10:58 11:18 12:67 13:43 14:57
10 1:26 3:170 4:43 5:92 7:363 8:151 9:204 10:-32 11:39 12:30 13:-12 14:73
10 1:57 3:170 4:66 5:102 6:177 7:429 8:163 9:86 10:62 11:73 12:71 13:67 14:50
10 1:8 3:120 4:28 5:118 6:126 7:303 8:164 9:80 10:120 11:17 12:37 13:68 14:123
10 1:30 2:1 3:160 4:52 5:110 6:154 7:426 8:154 9:94 10:102 11:53 12:60 13:76 14:66
10 1:55 2:1 3:160 4:70 5:93 6:155 7:387 8:175 9:103 10:45 11:36 12:54 13:40 14:67
10 1:65 3:172 4:66 5:98 6:199 7:339 8:149 9:181 10:-4 11:136 12:34 13:13 14:102
10 1:58 3:160 4:65 5:133 6:148 7:417 8:260 9:92 10:-158 11:13 12:63 13:-29 14:70
10 1:11 3:138 4:29 5:123 6:145 7:361 8:221 9:80 10:112 11:-17 12:14 13:51 14:93
10 1:11 3:140 4:42 5:88 6:123 7:362 8:228 9:81 10:-18 11:52 12:67 13:33 14:74
10 1:41 2:1 3:154 4:75 5:88 6:157 7:384 8:132 9:112 10:65 11:44 12:45 13:55 14:62
10 1:37 3:190 4:85 5:100 6:137 7:361 8:201 9:73 10:86 11:66 12:52 13:79 14:73
11 1:13 3:169 4:51 5:100 6:167 7:321 8:174 9:91 10:107 11:66 12:52 13:88 14:84
11 1:34 3:170 4:73 5:94 6:186 7:373 8:224 9:125 10:90 11:52 12:60 13:77 14:83
11 1:22 2:1 3:165 4:52 5:108 6:184 7:406 8:218 9:114 10:24 11:-115 12:54 13:11 14:93
11 1:9 3:120 4:25 5:95 6:118 7:347 8:156 9:66 10:84 11:41 12:42 13:64 14:82
